freq,psd_x,psd_y,psd_z,psd_xyz
0.0,8.489e+01,5.277e+00,1.019e+01,1.004e+02
1.5,6.397e+01,2.186e+01,3.467e+01,1.205e+02
3.1,3.597e+01,2.658e+01,4.323e+01,1.058e+02
4.6,3.148e+02,2.710e+01,4.551e+01,3.874e+02
6.1,1.109e+03,2.928e+01,4.816e+01,1.187e+03
7.7,1.765e+03,2.918e+01,4.622e+01,1.840e+03
9.2,2.394e+03,2.926e+01,4.771e+01,2.471e+03
10.7,3.163e+03,2.933e+01,4.826e+01,3.241e+03
12.3,3.980e+03,3.006e+01,4.447e+01,4.054e+03
13.8,4.844e+03,3.082e+01,4.750e+01,4.922e+03
15.3,5.766e+03,3.021e+01,4.806e+01,5.844e+03
16.9,6.477e+03,3.060e+01,4.825e+01,6.556e+03
18.4,7.157e+03,3.092e+01,4.814e+01,7.236e+03
19.9,8.107e+03,3.469e+01,5.595e+01,8.198e+03
21.5,9.053e+03,3.496e+01,6.424e+01,9.152e+03
23.0,1.002e+04,3.299e+01,6.472e+01,1.012e+04
24.5,1.082e+04,3.925e+01,7.669e+01,1.093e+04
26.1,1.137e+04,5.151e+01,6.010e+01,1.148e+04
27.6,1.228e+04,4.874e+01,4.801e+01,1.238e+04
29.1,1.273e+04,4.545e+01,4.802e+01,1.283e+04
30.7,1.388e+04,5.107e+01,5.425e+01,1.398e+04
32.2,1.523e+04,6.133e+01,5.357e+01,1.535e+04
33.7,1.600e+04,7.528e+01,5.226e+01,1.613e+04
35.3,1.691e+04,1.087e+02,5.328e+01,1.707e+04
36.8,1.784e+04,2.283e+02,5.965e+01,1.813e+04
38.4,1.793e+04,3.481e+02,7.599e+01,1.836e+04
39.9,1.670e+04,3.569e+02,8.725e+01,1.714e+04
41.4,1.471e+04,2.672e+02,1.018e+02,1.508e+04
43.0,1.452e+04,2.033e+02,1.108e+02,1.484e+04
44.5,1.590e+04,1.607e+02,1.208e+02,1.619e+04
46.0,1.773e+04,1.472e+02,1.320e+02,1.801e+04
47.6,1.963e+04,1.322e+02,1.358e+02,1.990e+04
49.1,2.127e+04,1.317e+02,1.509e+02,2.156e+04
50.6,2.216e+04,1.443e+02,1.686e+02,2.247e+04
52.2,2.153e+04,1.533e+02,1.829e+02,2.187e+04
53.7,2.081e+04,1.819e+02,2.140e+02,2.121e+04
55.2,2.241e+04,2.154e+02,2.652e+02,2.289e+04
56.8,2.465e+04,2.555e+02,3.208e+02,2.523e+04
58.3,2.695e+04,3.472e+02,3.757e+02,2.768e+04
59.8,2.799e+04,5.012e+02,4.117e+02,2.890e+04
61.4,2.634e+04,5.675e+02,3.659e+02,2.727e+04
62.9,2.482e+04,4.132e+02,2.191e+02,2.545e+04
64.4,2.604e+04,2.728e+02,1.412e+02,2.646e+04
66.0,2.843e+04,2.537e+02,1.296e+02,2.881e+04
67.5,3.069e+04,2.621e+02,1.333e+02,3.108e+04
69.0,3.255e+04,2.606e+02,1.389e+02,3.295e+04
70.6,3.365e+04,3.698e+02,1.254e+02,3.415e+04
72.1,3.225e+04,4.144e+02,1.205e+02,3.278e+04
73.6,2.901e+04,3.485e+02,1.732e+02,2.953e+04
75.2,2.842e+04,2.648e+02,2.734e+02,2.895e+04
76.7,3.096e+04,2.014e+02,4.143e+02,3.158e+04
78.2,3.416e+04,1.922e+02,5.944e+02,3.494e+04
79.8,3.796e+04,2.076e+02,8.419e+02,3.901e+04
81.3,4.240e+04,2.316e+02,1.157e+03,4.378e+04
82.8,4.764e+04,2.704e+02,1.505e+03,4.942e+04
84.4,5.478e+04,2.673e+02,1.872e+03,5.692e+04
85.9,6.397e+04,2.674e+02,2.349e+03,6.658e+04
87.4,7.523e+04,2.319e+02,2.904e+03,7.837e+04
89.0,8.904e+04,2.008e+02,3.692e+03,9.293e+04
90.5,1.068e+05,1.940e+02,4.655e+03,1.117e+05
92.0,1.282e+05,1.760e+02,6.020e+03,1.344e+05
93.6,1.606e+05,1.700e+02,8.513e+03,1.693e+05
95.1,2.036e+05,1.725e+02,1.232e+04,2.161e+05
96.6,2.557e+05,1.783e+02,1.863e+04,2.745e+05
98.2,3.172e+05,2.164e+02,2.792e+04,3.453e+05
99.7,3.658e+05,3.567e+02,3.842e+04,4.045e+05
101.2,3.754e+05,5.840e+02,4.673e+04,4.227e+05
102.8,3.465e+05,7.892e+02,5.035e+04,3.976e+05
104.3,3.113e+05,9.074e+02,5.097e+04,3.632e+05
105.9,2.864e+05,9.509e+02,5.125e+04,3.386e+05
107.4,2.574e+05,9.952e+02,5.076e+04,3.092e+05
108.9,2.140e+05,1.034e+03,4.829e+04,2.634e+05
110.5,1.632e+05,1.089e+03,4.363e+04,2.079e+05
112.0,1.188e+05,1.130e+03,3.784e+04,1.577e+05
113.5,8.624e+04,1.055e+03,3.167e+04,1.190e+05
115.1,6.149e+04,9.151e+02,2.577e+04,8.818e+04
116.6,4.084e+04,6.990e+02,1.934e+04,6.088e+04
118.1,2.686e+04,5.424e+02,1.359e+04,4.099e+04
119.7,1.918e+04,4.785e+02,9.125e+03,2.878e+04
121.2,1.428e+04,3.229e+02,6.311e+03,2.091e+04
122.7,9.546e+03,1.351e+02,5.208e+03,1.489e+04
124.3,4.768e+03,1.254e+02,4.232e+03,9.126e+03
125.8,2.424e+03,2.173e+02,3.144e+03,5.785e+03
127.3,2.327e+03,3.275e+02,2.327e+03,4.981e+03
128.9,3.502e+03,5.064e+02,1.753e+03,5.762e+03
130.4,5.538e+03,7.797e+02,1.274e+03,7.592e+03
131.9,6.962e+03,9.599e+02,8.948e+02,8.816e+03
133.5,2.896e+03,3.804e+02,3.365e+02,3.613e+03
135.0,6.731e+02,7.058e+01,9.145e+01,8.351e+02
136.5,7.331e+02,7.011e+01,9.141e+01,8.946e+02
138.1,7.788e+02,6.986e+01,1.187e+02,9.674e+02
139.6,7.605e+02,6.870e+01,1.575e+02,9.866e+02
141.1,6.417e+02,6.372e+01,1.562e+02,8.616e+02
142.7,4.666e+02,6.671e+01,1.899e+02,7.232e+02
144.2,3.891e+02,1.035e+02,2.420e+02,7.346e+02
145.7,3.224e+02,1.399e+02,2.747e+02,7.370e+02
147.3,2.845e+02,1.672e+02,2.833e+02,7.349e+02
148.8,2.940e+02,1.958e+02,2.701e+02,7.598e+02
150.3,3.538e+02,2.149e+02,2.440e+02,8.127e+02
151.9,4.348e+02,2.152e+02,2.215e+02,8.715e+02
153.4,4.849e+02,1.883e+02,1.668e+02,8.401e+02
154.9,6.903e+02,2.093e+02,1.839e+02,1.083e+03
156.5,9.271e+02,2.908e+02,2.455e+02,1.463e+03
158.0,1.627e+03,4.875e+02,3.621e+02,2.476e+03
159.5,2.956e+03,7.654e+02,6.296e+02,4.351e+03
161.1,3.455e+03,7.654e+02,9.277e+02,5.148e+03
162.6,2.714e+03,5.235e+02,1.043e+03,4.280e+03
164.1,1.933e+03,3.596e+02,1.136e+03,3.429e+03
165.7,1.376e+03,2.808e+02,1.255e+03,2.911e+03
167.2,1.018e+03,2.718e+02,1.403e+03,2.693e+03
168.7,8.741e+02,3.376e+02,1.728e+03,2.939e+03
170.3,8.941e+02,4.889e+02,2.324e+03,3.707e+03
171.8,9.145e+02,6.413e+02,2.753e+03,4.309e+03
173.4,9.870e+02,8.425e+02,2.889e+03,4.718e+03
174.9,1.181e+03,1.135e+03,2.856e+03,5.172e+03
176.4,1.574e+03,1.406e+03,2.472e+03,5.452e+03
178.0,1.801e+03,1.432e+03,1.679e+03,4.913e+03
179.5,1.777e+03,1.234e+03,9.205e+02,3.932e+03
181.0,1.667e+03,1.001e+03,5.180e+02,3.186e+03
182.6,1.424e+03,7.934e+02,3.258e+02,2.543e+03
184.1,1.089e+03,5.784e+02,2.096e+02,1.877e+03
185.6,8.480e+02,4.322e+02,1.409e+02,1.421e+03
187.2,6.555e+02,3.294e+02,1.155e+02,1.100e+03
188.7,5.297e+02,2.508e+02,1.063e+02,8.868e+02
190.2,4.664e+02,2.216e+02,1.034e+02,7.913e+02
191.8,4.534e+02,2.156e+02,9.690e+01,7.659e+02
193.3,4.575e+02,2.248e+02,9.385e+01,7.761e+02
194.8,4.898e+02,2.441e+02,1.013e+02,8.351e+02
196.4,5.343e+02,2.606e+02,1.091e+02,9.041e+02
197.9,5.195e+02,2.567e+02,1.044e+02,8.806e+02
199.4,5.112e+02,2.546e+02,1.088e+02,8.747e+02
